Prices
113.395
114.25
113.64
109.45
108.05
111.82
108.62
106.58
106.08
107.77
108.29
106.72
106.33
103.93
106.07
105.42
107.01
107.29
107.18
106.28
107.94
109.39
108.6
108.41
109.94
107.71
107.74
104.65
105.15
101.381
101.32
101.99
103.05
101.32
101.91
105.23
105.17
104.97
104.35
101.73
100.85
102.15
100.39
101.86
101.87
98.98
96.82
97.06
96.54
95.08
93.65
94.54
91.96
89.81
83.71
83.84
88.26
91.26
91.22
92.75
96.01
92.05
93.39
92.09
88.42
91.5
93.13
92.22
95.03
93.31
90.28
96.04
98.93
99.56
98.5
98.76
97.54
95.84
98.11
96.37
97.67
98.33
99.45
101.77
99.54
96.79
94.08
86.78
87.25
90.31
91.79
91.53
90.75
88.18
89.16
86.83
86.85
86.39
85.31
85.5
91.15
92.43
95.01
95.06
96.41
94.08
93.81
94.32
92.73
92.08
92.25
86.73
84.21
83.66
86.9
87.49
84.53
85.07
87.78
86.54
90.3
89.35
90.68
90.36
90.81
92.32
93.04
88.11
88.9
89.12
92.53
96.3
95.19
96.16
95.81
95.94
95.23
93.2
94.8
96.91
96.41
95.28
93.8
91.06
91.93
91.66
93
90.14
89.68
89.07
90.34
90.48
89.6
88.6
87.72
86.21
86.55
85.67
85.4
87.85
86.8
90.63
89.52
90.8
89
88.85
90
91.34
90.5
92.15
91.67
91.15
92.71
94.88
94.28
94.03
95.68
96.57
94.7
96.44
97.97
97.98
97.25
97.71
96.62
97.69
98.2
96.73
97.36
98.47
99.75
98.95
98.82
99.34
94.53
95.11
93.51
93.52
91.58
93.42
91.59
90.73
90.47
91.79
90.3
90.48
91.49
90.26
89.15
89.02
89.2
88.71
88.75
89.76
88.98
87.385
89.7
89.11
89.11
90.37
90.65
89.55
89.19
90.11
89.01
88.8
88.28
88.08
88.78
88.3
87.655
88.05
86.24
87.535
85.78
85.64
85.08
86.72
84.52
85.31
84.54
84.21
85.23
83.25
82.4
80.49
77.93
77.33
76.1
76.29
75.16
73.16
76.86
77.74
78.53
77.25
76.45
76.78
76.07
77.55
73.73
76.26
77.34
79.93
79.69
79.93
80
80.43
77.09
76.8
74.85
69.24
68.37
71.01
75.79
77.31
78.36
76.05
77.71
77.47
76.9
77.63
76.94
78.05
77.17
76.44
77.25
79.93
79.62
76.27
76.54
75.19
73.03
73.24
72.8
69.44
70.14
72.8
73.59
77.1
80.63
82.83
83.73
87.01
87.32
86.02
85.29
85.81
87.13
87.52
84.81
84.88
83.8
85.8
85.45
83.43
82.7
84.79
85.45
85.89
86.06
88.46
86.47
86.46
85.35
85.35
86.57
83.32
81.64
82.29
84.86
82.99
85.16
82.61
82.64
82.6
85.14
83.53
82.03
83.41
84.05
80.87
80.98
80.4989
76.238
77.19
78.37
78.2
74.88
76.85
77.27
75.79
73.3
71.43
70.26
69.8
73.68
73.39
70.48
71.08
70.6
70.79
69.67
70.14
67.33
65.46
65.51
63.6799
62.91
64.17
65.24
63
60.99
60.25
63.74
66.01
61.6
66.03
66.07
68.63
71
69.08
67.16
70.27
68.417
67.05
68.43
65.63
65.77
65.54
67.71
67.87
70.8
69.44
69.71
72.19
68.04
69.5
68.5
67.51
64.72
65.01
67.01
69.27
71.41
75.49
70.54
72.26
72.26
75.17
74.78
73.62
75.07
76.5
75.7
75.98
75.91
74.32
74.24
74.57
75.48
73.6688
72.58
72.09
70.26
70.58
71.21
71.45
73.5
74.05
77.48
77.82
77.81
75.68
77.44
79.13
79.38
79.16
80.93
79.8
82.72
84.54
81.89
82.66
82.73
80.69
79.35
81.24
78.7
78.66
79.7
80.38
80.53
78.67
80.72
81.575
80.41
80.1399
80.93
81.32
82.5
83.05
82.32
81.56
81.39
80.75
80.47
79.71
81.265
85.43
85.36
84.59
81.58
81.43
82.97
82.48
80.21
80.89
83.18
84.93
83.62
84.48
81.1
78.57
81.74
83.445
83.38
84.77
82.76
82.76
81.64
82.53
82.89
85.12
83.84
84.63
84.12
83.24
82.06
82.15
81.49
80.97
78.76
80.45
79.8
79.91
81.71
78.7
79.89
82.38
84.215
90.11
90.63
90.4
89.46
90.29
91.18
90.54
90.28
90.21
91.72
91.71
91.18
91.19
90.75
90.25
90.19
91.12
90.08
88.48
88.55
88.9
94.82
94.31
95.45
92.66
92.99
90.43
88.46
90.96
90.92
90.06
90.39
93.52
92.59
89.76
89.28
88.57
93.95
95.04
96.695
96.1
95.15
97.35
97.15
96.43
97.28
96.055
96.3
95.53
94.47
93.76
93.12
95.05
94.9
93.89
93.61
92.64
92.16
91.75
90.81
90.42
91.19
90.98
92.275
91.78
93.44
93.36
93.41
92.65
91.455
92.68
94.57
95.23
92.25
93.18
95.65
95.29
96.99
95.97
93.44
92.44
102.54
104.75
103.85
104.45
104.05
103.57
104.93
106.58
105.9
108.0097
104.13
103.93
103.99
103.49
103.11
102.54
103.16
102.01
102.53
101.64
101.27
101.06
103.43
103.591
104.17
105.215
103
103.405
105.04
105.41
105.37
105.46
105.4225
105.18
105.47
103.49
103.69
103.95
104.4
102.88
101.2
101.59
101
99.7
100.93
99.71
97.12
98.15
99.79
101.45
100.3
101.24
100.71
100.16
99
99.43
97.51
97.57
96.3
97.96
96.99
100.01
98.43
98.56
100.08
99.53
94.82
95.7
94.795
94.95
94.64
97.03
95.87
96.39
96.19
94.53
94.645
94.73
94.84
93.39
95.28
96.99
97.43
97.55
96.99
98.27
97.54
98.05
97.36
98.55
97.87
97.48
95.65
95.79
94.85
93.28
93.31
93.57
93.74
95.28
94.32
93.01
92.49
92.01
91.86
91.76
88.61
90.82
91.63
91.6
94.54
94.29
94.69
94.74
93.83
92.92
91.71
93.8
93.11
92.54
92.67
91
91.21
89.62
90.27
90.37
89.645
89.21
90.84
88.14
88.12
90.08
89.905
90.56
88.96
87.05
88.505
88.05
87.8592
87.11
87.69
87.8
87.38
88.01
89
90.02
90.54
92.32
90.28
88.629
88.41
89.59
90.67
90.59
91.81
91.87
91.85
91.71
94.3
93.69
92.91
93.34
94.88
94.75
95.98
95.37
95.19
94.44
92.3
88.89
90.44
89.7
91.14
90.34
89.16
88.52
87.95
87.04
84.98
83.3947
84.08
83.7
84.25
85.1
84.66
84.52
83.38
83.15
83.62
84.94
85.65
85.86
87.84
88.63
86.78
87.92
88.54
91.11
91.85
93.2001
93.05
93.125
94.18
93.9
94.53
96.17
96.88
97.32
96.81
96.74
97.16
96.49
96.31
96.56
96.18
96.52
96.8
96.93
96.61
96.62
97.2
97.47
96.68
95.7497
96.82
96.98
96.47
96.19
96.93
98.4689
99.54
99.89
102.29
102.95
104.45
106.99
106.09
104.34
104.77
104.6
104.46
102.47
101.33
101.43
101.67
101.45
101.68
101.59
101.66
99.85
99.82
100.52
102.31
102.93
100.99
100.89
98.9
99.71
100.38
101.2
100.29
99.97
99.64
98.53
99.9125
101.4
103.54
106.35
107.15
109.41
108.35
108.45
108.18
109.29
110.93
110.94
112.1601
112.71
111.71
111.98
115.13
115.72
113.36
113.54
114.29
114.37
116.84
117.81
118.471
117.44
117.69
116.57
115.17
115.01
116.53
112.8
109.55
108.32
105.78
101.05
100.07
103.08
102.48
106.7625
107.65
107.65
107.95
105.87
107.13
108.84
109.41
106.9
101.42
100.92
101.45
101.78
100.99
100.86
100.58
102.79
100.64
100.02
99.89
98.62
100.46
98.47
101.33
104.79
104.28
105.86
107.63
106.24
103.84
105.28
102.93
105.06
104.14
104.37
101.92
103.38
107.66
109.4
109.94
111.02
111.03
111.15
112.78
114.009
113.99
114.84
114.57
115.39
117.64
116.77
118.21
117.54
116.63
116.01
114.67
113.88
115.31
117.78
118.96
117.39
118.75
120.22
121.51
126.19
125.835
127.47
123.76
122.94
119.98
117.74
116.21
119.77
117.83
118.34
118.65
116.61
116.13
117.9
117.68
118
118.48
118.3
117.58
114.15
116.63
117.08
119.43
116.58
118.52
116.83
119.68
123.915
123.49
124.48
122.4
122.61
123.22
124.35
126.14
126.96
124.67
124.18
125.98
124.59
124.32
123.6
122.4
122.34
122.85
125.6
128.38
128.86
129.14
129.9
128.93
125.57
126.07
122.43
123.89
124.42
122.74
122.32
122.77
121.49
123.09
115.45
115.91
114.76
114.78
115.49
117.33
116.4
117.47
118.65
117.95
118.78
118.92
118.22
117.68
117.9
115.49
114.49
114.32
116.22
116.955
116.61
117.81
117.55
119.47
120.16
119.22
119.47
123.99
125.67
125.39
127
127.58
129.48
130.01
130.39
130.22
131.049
129.87
132.36
126.5
121.67
122.17
122.56
122.27
120.15
118.57
117.56
116.26
111.09
106.105
107.12
106.55
102.07
105.545
105.29
106.91
102.41
106.33
107.315
109.17
104.84
105.53
101.26
98.54
98.13
101.66
105.05
105.79
102.36
106.005
100.71
102.6
101.93
103.78
105.49
103.33
108.09
104.03
102.05
103.64
101.7
102.08
103.9
102.81
100.08
96.21
93.99
92.99
89.75
87.29
82.9
88.98
88.69
87.5
87.19
90.62
90.07
93.9
94.54
95.53
99.26
99.11
96.84
98.5
98.6
98.78
99.05
101.37
96.87
96.57
97.24
99.11
98.1
98.86
99.45
99.22
98.85
99.4
98.34
96.19
92.98
92.48
94.23
95.65
96.79
96.94
100.26
99.73
98.73
95.33
95.52
94.74
94
95.02
94.01
96.42
96.81
95.55
91.93
91.34
86.41
86.3
86.97
88.62
89.71
88.83
91.96
92.91
95.89
96.88
93.64
92.82
94.79
94.58
95.26
95.19
96.97
96.07
93.96
93.65
98.64
99.48
98.61
98.77
98.74
105.32
102.06
102.36
101.82
103.89
107.04
106.64
103.91
102.07
97.87
96.98
95.97
91.89
89.19
90.87
91.23
91.76
94.04
94.25
95.01
93.46
94.33
94.37
95.15
93.02
93.68
95.68
92.9
88.86
87.13
87.12
86.43
83.97
81.88
82.87
84.27
82
84.32
84.59
85.24
86.51
85.03
86.52
85.18
85.47
88.3
88.645
91.48
92.41
90.56
90.08
93.07
92.07
93.19
92.98
87.48
87.19
88.56
90.11
89.09
90.62
90.83
90.93
88.73
86.96
85.13
85.56
87.04
87.21
87.59
87.69
85.42
84.3
83.94
86.04
85.87
80.98
82.46
79.01
78.27
77.53
80.35
79.34
77.93
78.44
75.01
74.92
75.88
77.81
76.7
77.2
75.49
71.76
72.25
71.65
72.52
74.49
74.15
74.16
75.53
75.57
76.46
79.99
80.01
81.04
79.7
79.39
85.65
81.19
81.32
81.6
81.01
80.12
78.55
76.78
75.06
75.01
74.24
71.58
69.81
70.87
70.94
69.75
68.7
68.62
68.915
69.2
68.17
69.26
68.2
66.77
64.49
67.68
69.61
71.94
71.95
72.48
71.08
71.8
69.67
69.29
71.13
73.66
74.01
71.43
74.77
74.66
73.76
73.32
72.64
72.36
73.48
71.26
70.39
72.02
73.34
72.98
73.49
71.88
72.36
70.95
70.73
68.78
72.05
70.58
73.96
74.51
74.84
74.7
76.73
75.52
77.86
78.78
80.53
81.27
82.66
83.4
83.84
83.66
83.11
82.33
83.77
84.15
84.99
88.45
89.3
87.34
88.23
86.31
85.52
86.34
86.75
87
85.325
84.04
83.1
81.86
79.82
76.63
77.09
75.16
75.84
72.87
71.41
73.63
77.05
75.85
74.36
73.695
74.8
75.39
75.66
74.94
74.53
77.25
76.02
74.25
69.88
66.95
63.18
59.83
63.26
62.79
62.43
64.08
61.98
55.29
37.6
41.59
38.92
32.51
34.8
31.11
30.88
29.7701
33.28
34.97
34.53
39.67
39.8
39.37
36.01
35
35.89
34.64
38.29
39.85
39.39
41.32
45.34
44.82
43.3
42.17
39.86
36.54
41.805
41.11
40.52
43.18
44.22
43.39
44.51
44.95
47.81
47.54
44.55
46.8
46.1
45.8
48.3
51.46
49.87
49.72
48.25
47.57
47.7
52.46
50.69
52.65
52.37
52.3
51.39
52.71
51.67
50.96
51.77
54.82
55.37
55.14
59.31
62.11
59.45
55.62
51.15
52.58
52.23
54.56
52.44
52.93
52.29
52.4
52.46
48.95
50.8
48.75
49.68
50.66
49.85
50.47
50.425
48.1
47.42
44.37
45.4
44.97
47.29
47.45
47.825
47.17
47.69
50.45
50.185
48.84
49.04
48.56
47.27
48.52
46.58
46.85
46.35
48.47
50.75
50.93
48.8
50.46
49.43
49.09
47.39
47.96
46.53
46.34
45.6
44.12
43.4
44.31
44.39
43.26
44.95
46.22
45.355
45.22
43.69
43.13
43.15
40.81
41.87
37.99
39.05
39.17
38.57
40.86
41.19
40.71
38.82
38.45
36.41
36.68
37.455
37.43
36.19
35.93
34.86
34.8
36.485
36
36.73
37.67
37.565
38.22
38.64
37.61
38.08
37.44
36.18
36.28
35.11
36.92
37.5
34.94
34.58
32.52
33.95
34.23
35.15
35.03
36.03
35.59
34.58
40.31
42.25
41.91
40.53
42.66
45.43
45.7
44.91
45.48
45.37
50.39
54.41
53
51.43
46.86
46.53
47.82
48.14
53.01
51.58
52.17
52.95
54.68
53.62
52.115
53.18
52.68
52.14
51.76
50.04
48.85
50.11
49.61
48.92
48.66
50.54
49.86
49.86
53.9
55.06
58.65
58.85
59.57
62.45
60.48
62.22
59.17
60.46
60.2
55.04
54.86
55.21
53.46
54.95
53.7
50.94
51.34
51.31
55.89
57.48
56.6
59.46
58.17
60.2
59.56
60.98
63.06
63.61
60.49
62.56
66.18
67.92
72.23
70.34
64.41
64.95
64.43
66.95
71.53
74.6
74.48
73.77
75.16
75.38
75.05
74.41
70.73
73.33
69.04
70.18
68.21
69.55
72.61
72.92
74.95
73.63
73.29
72.49
75.38
71.73
72.35
73.26
72.15
71.71
70.14
70.41
74.13
72.82
70.47
71.37
68.56
68.99
68.37
69
69.79
71.62
74.95
76.03
73.61
75.92
75.12
76.68
77
82.99
84.51
82.23
81.39
79.51
82.52
85.13
83.02
80.58
80.45
80.03
80.09
78.73
79.66
80.18
80.37
84.62
85.33
86.81
87.44
86.98
87.32
85.74
86.13
85.37
84.79
85.65
84.78
81.43
79.51
84.94
85.02
85.72
86.12
87.5
82.94
82.35
83.48
86.07
85.85
83.7
81.09
79.88
82.52
83.24
82.78
79.62
76.23
73.88
70.42
71.47
74.16
73.62
72.54
74.11
72.58
73.24
73.68
72.84
71.57
73.71
70.76
70.71
70.84
69.34
68.68
69.43
69.82
68.04
65.83
65.92
65.3
64.22
64.41
67.57
68.44
68.75
67.48
69.64
67.35
67.45
66.29
68.37
68
67.63
67.14
67.41
67.09
70.09
69.52
75.28
73.91
74.18
71.58
72.26
74.55
76.81
78.04
81.82
81.67
82.53
80.24
83.93
86.37
87.15
86.51
85.88
90.53
90.16
90.17
90.38
90.62
89.7
89.37
90.1
93.13
90.94
92.09
94.12
95.04
93.01
93.89
92.44
93.45
92.83
90.94
90.85
95.05
96.99
97.11
94.28
94.9
94.83
93.2
91.845
90.1
89.56
85.68
86.72
91.79
93.03
87.4
88.37
86.98
85.32
86.54
85.98
87.51
90.56
90.06
88.9
89.68
88.04
85.3
84.83
86.2
84.02
83.57
86.38
87.22
87.15
90.76
90.19
89.81
89.19
88.82
91.15
95.35
93.6
95.495
98.17
98.03
102.21
102.76
102.07
105.61
105.68
105.14
103.48
100.58
102.31
106.95
107.51
109.74
109.75
111.495
113.15
112.9
111.81
113.65
114.6
111.54
113.32
112.67
116.79
113.43
110.95
111.79
112.55
111.58
109.52
110.34
110.17
107.28
114.93
116.32
116.72
116.28
118.77
120.22
117.85
113.77
119.88
116.68
115.84
113.8
113.01
117.79
115.86
122.47
120.83
123.53
121.03
124.51
120.86
120.63
121.11
119.25
120.32
120.84
117.83
118.45
120.63
126.9
121.32
124.58
123.61
122.83
123.31
121.89
122.69
119.53
116.125
111.72
111.56
112.775
117.77
116.81
116.36
120.76
124.78
123.73
132.05
118.01
119.64
121.35
120.58
124.305
126.23
