Prices
104.355
102.505
102.195
99.19
99.225
100.305
99.115
99.43
98.655
100.075
99.585
99.78
100.99
100.775
101.125
101.91
102.325
102.045
102.54
102.28
103.145
103.235
102.61
102.72
102.915
102.605
101.785
101.805
101.95
101.915
100.73
101.26
100.695
99.855
99.85
100.25
100.875
101.585
101.435
99.83
99.155
100.295
98.74
99.215
99.75
98.37
95.585
95.57
95.365
95.605
93.21
94.745
93.04
91.815
88.29
88.81
90.305
90.9
93.615
95.59
98.015
96.745
97.4
97.9
96.335
97.68
95.955
96.15
101.835
100.17
99.25
102.6
103.03
103.455
103.09
102.61
101.915
102.555
101.96
102.68
104.335
105.45
106.355
107.665
107.895
107.69
108.49
109.44
109.98
109.565
111.635
111.85
111.43
111.43
112.805
110.47
111.325
109.98
109.05
108.405
111.135
113.465
113.965
114.8275
115.57
115.61
115.785
116.26
115.85
115.59
114.705
111.715
111.425
111.945
114.875
113.53
113.17
113.48
113.38
113.09
115.29
114.07
114.05
115.715
113.92
113.885
113.025
110.97
112.78
111.52
111.875
113.405
113.655
115.145
115.375
113.415
114.07
114.085
116.52
118.345
117.89
118.125
117.765
118.365
118.25
118.38
117.825
117.965
117.73
118.83
117.26
117.645
117.76
116.015
116.155
113.9
112.605
114.81
114.02
115.08
113.585
114.845
113.095
114.485
113.26
112.77
111.235
110.69
111.475
112.24
112.775
112.215
111.795
112.105
112.455
113.065
114.135
114.765
114.76
114
113.62
113.415
113.345
113.875
113.54
113.23
112.97
111.65
110.44
110.34
111.125
110.795
112.23
112.535
110.795
111.05
112.47
114.525
113.67
112.235
112.705
114.325
115.87
115.49
115.025
114.495
114.56
114.61
113.345
114.61
114.935
114.45
114.5
114.13
115
114.37
114.3
114.145
114.65
115.945
116.93
116.675
115.45
115.99
116.62
117.78
117.32
118.19
118.25
118.01
117.7899
118.03
114.95
114.7
116.52
115.87
115.09
115.04
113.15
112.66
114.96
116.52
117.66
117.12
111.83
111.8
110.85
108.2
108.04
105.62
103.26
102.42
106.94
108.59
108.59
108.43
107.83
106.51
106.6
105.23
103.98
106.61
104.44
103.9
103.54
104.71
104.23
104.52
102.52
99.93
97.27
92.34
91.1
93.15
95.13
96.11
95.29
91.32
93.51
93.97
93.32
96.41
96.125
96.62
96.72
94.16
94.3
95.02
94.47
93.21
93.44
91.6
89.92
88.085
88.34
84.55
85.96
87.68
90.16
92.72
94.57
93.36
94.33
95.75
96.02
97.31
97.21
97.22
99.17
100.77
101.26
101.39
100.72
103.61
104.05
103.9
102.97
104.3197
104.19
104.31
103.97
104.21
103.89
103.23
103.01
101.75
101.17
101.64
99.22
100.86
101.98
101.62
104.19
103.34
104.6
105.4201
105.55
106.5
106.22
105.77
106.76
105.35
104.36
105.9
105
102.74
101.58
100.88
98.7
97.67
98.54
100.2297
98.2
96.29
97.23
98.73
100.26
100.42
99.89
100.53
99.75
98.82
97.98
98.31
96.55
95.26
94.48
94.48
95.1075
93.055
93.6
91.88
91.56
93.59
91.92
93.14
91.13
92.58
92.8
92.08
95.08
95.57
93.08
95.14
95.68
92.87
89.66
90.98
91.27
89.23
91.76
93.59
95.02
94.69
95.6
96.74
94.88
95.7
97.02
98.16
96.51
99.56
99.3
100.29
102.32
103.34
101.54
102.26
102.93
105
104.7
104.78
106.64
109.42
108.9
108.84
109.79
109.15
108.94
109.47
110.55
111.87
111.46
113.09
112.2
111.5
112.095
110.59
111.82
111.64
112.94
114.23
114.49
115.31
115.75
116.59
116.045
110.29
113.16
112.57
113.54
113.01
112.78
110.43
111.19
109.5
108.62
108.6
108.28
107.4
108.725
107.43
107.53
106.705
108.16
107.04
106.44
105.62
106.21
106.45
107.75
108.29
107.7
108.6
107.68
108.02
108.19
107.63
108.14
107.75
110.93
110.42
109.23
107.67
107.06
106.63
106.93
108.175
108.39
108.06
107.8
111.19
102.71
98.685
100.55
102.51
104.1
104.51
102.66
102.95
103.02
106.31
106.61
108.67
109.47
108.62
109.24
109.31
108.38
110.04
108.59
107.64
106.61
106.77
106.11
105.48
104.71
104.67
103.68
104.34
104.0775
104.435
104.48
104.3475
104.66
104.74
103.99
104.47
103.65
103.58
103.74
104.73
105.22
106.45
106.38
106.76
105.76
107.6
107.3
105.89
105.97
107.05
107.62
106.73
105.28
100.87
102.73
101.17
100.71
101.22
100.2101
101.1
101.25
102.46
103.13
103.29
102.15
102.45
103.57
102.05
103.43
103.45
102.03
101.59
102.17
93.72
93.85
92.29
91.93
92.14
92.62
92.65
92.8
92.55
92.65
92.365
93.24
91.22
92.52
93.35
92.87
93.14
92.74
92.395
91.755
92.81
94.33
94.73
95.28
96.88
95.71
96.05
96.21
96.358
96.6
95.19
96.18
96.62
97.58
98.07
97.35
98.005
95.935
95.24
94.58
95.99
96.2
98.18
99.4
99.3
98.65
97.04
96.16
96.12
95.9
96.23
95.63
95.87
94.99
94.69
95.83
94.6495
95.31
94.77
95.25
97.27
95.61
95.59
96.36
96.4
96.64
96.91
96.29
95.97
96.69
97.5
99.01
100.24
101.8
101.07
101.855
102.01
102.01
99.98
100.54
100.58
100.92
99.87
100.02
100.11
100.13
100.54
100.81
101.52
101.47
101.77
102.34
103
102.8
102.59
103.33
102.45
102.43
103.28
102.36
102.04
101.17
100.76
106.84
102.92
102.1
102.67
101.74
104.03
103.55
104.48
105.58
104.51
104.24
104.61
103.81
103.83
105
105.76
105.25
105.09
105.12
104.78
105.04
105.29
106.05
105.8
105.99
105.04
104.44
105.39
104.73
105.01
106.37
106.13
108
110.82
110.48
111.28
109.84
109.47
109.47
109.19
109.89
110.56
108.4
107.84
107.85
107.45
107.12
107.97
107.43
105.48
105.38
106.72
106.41
106.68
106.94
106.87
107.21
106.49
106.35
109.16
110.35
108.36
108.35
107.83
107.929
109.85
110.1401
111.56
111.51
111.43
111.16
111.1
110.76
110.69
110.56
110.64
110.81
110.49
111.0297
109.65
109.97
110.66
110.69
110.05
110.99
110.97
110.97
111.83
112.44
112.75
112.96
112.95
113.525
106.74
106.35
105.41
107.07
106.75
106.19
106.05
105.26
105.18
106.24
104.68
104.99
105.14
103.55
103.38
101.25
100.72
102.56
102.99
103.71
102.7
102.05
102.37
104.54
103.61
103.71
103.71
104.13
103.85
103.81
104.21
104.59
103.32
104.26
103.98
103.6
105.89
106.68
105.09
106.62
106.29
106.8101
108.36
108.82
109
108.74
109.16
108.5
108
108.87
108.63
111
111.99
112.26
113.04
113.25
112.71
112.46
112.41
113.39
113.5
113.12
112.97
112.86
114.34
117.77
116.93
117.44
117.68
118.68
117.96
116.16
116.38
115.92
116.15
116.55
116.33
116.34
116.13
115.13
114.68
114.54
114.39
113.4
113.98
113.83
114.895
115.35
115.28
116.09
115.9
117.37
117
116.86
115.91
117.51
116.7
116.21
116.07
115.91
115.6701
115.88
116.4
113.82
115.08
116.15
116.3
116.16
116.17
116.19
116.26
116.46
117.15
116.82
117.985
118.18
117.47
118.87
118.65
118.21
116.64
117.53
118.14
116.55
114.5
118.41
118.45
116.77
117.26
118.84
120.25
121.49
119.58
118.37
118.74
117.65
115.62
111.87
114
114.1
110.3
112.42
113.98
114.56
116.34
116.22
116.18
115.42
115.62
115.87
117.48
117.53
115.27
112.45
111.07
110.28
112.76
115.01
115.03
115.41
117.63
116.459
116.085
115.04
114.33
114.93
113.19
113.81
113.94
111.27
109.44
111.89
111.94
110
111.63
108.22
110.18
110.79
111.67
109.39
109.66
110.38
109.27
110.03
109.99
111.77
113.07
113.25
109.65
108.86
108.88
105.74
107.86
107.7
108.01
105.88
106.9
105.69
104.96
106.41
106.19
106.67
107.02
106.13
100.37
102.96
103
103.5
104.38
104.89
104.95
102.85
102.68
102.51
103.39
101.03
101.44
100.92
102
102.43
102.5
103.94
103.06
104.14
103.93
103.53
103.29
103.965
105.36
104.99
104.11
105.15
104.26
105.46
105.08
105.855
105.16
105.72
103.73
102.7
102.08
102.82
102.94
103.93
104.79
103.75
103.84
103.99
102.35
105.42
106.85
106.39
105.01
104.399
106.05
109.27
110.66
109.44
109.74
110.66
109.73
109.33
110.95
110.3
109.96
109.26
109.22
107.46
106.07
106.84
107.02
107.91
108.43
109.75
111.07
110.61
109.77
110.62
111.13
109.86
111.66
110.65
110.57
109.89
110.6
112.02
111.52
112.1
112.59
112.04
112.94
112.14
112.99
113.29
115.05
115.9399
115.56
112.68
111.54
110.4
108.97
109.12
109.76
110.2
108.71
108.45
108.0203
109.58
98.56
99.59
96.39
95.1
96.15
98.17
98.11
99.02
101.38
101.67
100.63
97.72
103.72
102.84
102.84
104.21
105.15
106.74
106.9
106.33
107.36
109.53
108.65
107.72
105.35
104.32
105.37
107
107.18
107.69
105.9
106.76
107.32
107.36
105.81
107.7
108.51
109.34
110.5
106.7
105.8
103.23
103.47
103.065
103.48
100.87
100.15
97.11
96.74
96.5
97.05
96.32
95.54
99.27
101.43
101.23
102.34
101.64
97.95
99.9
100.24
101.06
101.52
102.6
101.86
101.98
101
102.46
107.46
105.38
104.33
102.05
102.22
103.48
103.7
104.47
105.04
105.44
105.75
106.24
106.96
106.09
104.84
104.86
104.72
107.62
107.61
107.26
109.11
108.74
109.73
110.1
111.41
112.3
111.45
112.17
111.96
112.76
111.37
110.78
110.57
109.84
109.64
111.29
111.15
111.32
109.69
110.04
110.96
110.9
110.86
112.64
106.7
107.05
108.37
110.09
111.72
112.87
114.24
114.26
114.58
114.99
114.97
114.39
114.28
114.9
114.5
115.6
116.5
118.39
117.43
119.85
117.21
117.57
116.63
115.55
117.81
117.12
117.51
115.45
116.77
117.61
116.285
114.44
113.97
112.89
112.21
111.24
111.58
111.93
112.9
111.76
107.71
108.98
108.47
106.82
107.75
107.49
107.19
107.27
104.65
107.73
111.68
112.37
112.96
113.99
114.4
116.88
116.98
116.93
116.54
114.94
114.73
115.75
115.22
116.05
116.89
116.26
115.58
115.93
116.69
118.64
118.07
119.05
117.98
116.37
115.94
115.42
115.97
117.03
117.71
117.84
116.6
117
117.48
116.96
118.95
118.1
118.12
117.94
118.44
118.96
117.41
115.65
114.18
111
110.95
112.85
116.65
115.32
112.55
113.09
110.22
109.56
110.71
111.63
110.29
110.7
110.1
106.56
107.16
107.42
109.04
110.13
110.76
110.42
111.51
113.33
115.82
116.51
117.23
117.68
118.18
119.35
115.33
117.19
119.44
120.7
119.2
118.33
116.22
116.66
116.76
118.19
118.49
116.87
114.43
114.55
116.63
115.73
112.34
114.61
115.61
119.16
117.25
118.22
118.96
121.23
124.27
124.73
125.31
124.45
123.58
124
123.7
125.08
126.03
125.1
125.41
128.09
128.92
129.76
129.83
128.96
129.2
130.295
130.33
129.74
129.48
128.925
128.78
126.54
125.69
125.44
127.85
129.71
129.19
128.89
128.51
127.96
129.12
131.14
132.59
133.04
132.45
132.31
133.79
133.02
133.18
133.11
131.62
132.37
132.44
133.04
133.54
133.36
133.3
132.89
133.49
131.59
129.68
129.02
128.05
128.42
128.71
128.095
129.22
129.94
130.74
127.48
128.46
125.89
126.12
126.24
125.77
122.95
123.99
123.41
123.16
119.81
121.43
122.54
124.95
124.38
122.6
120.79
121.94
122.38
120.45
120.17
119.34
119.51
119.37
118.9
115.26
109.63
109.1
103.61
104.21
105.23
104.37
107.97
102.68
101.42
97.42
101.91
97
89.93
94.185
82.36
82.76
72.91
76.64
79.91
72.49
82.05
85.67
89.74
85.07
85.96
83.59
79.87
80.73
80.39
86.52
91.11
93.33
97.1
93.64
92.745
88.42
88.9
93.31
91.12
88.03
90.06
90.57
92.83
95.85
91.46
95.79
90.85
87.96
86.83
88.33
88.85
90.34
91.96
90.44
87.67
84.28
85.93
86.85
91.82
93.24
96
95.01
96.18
99.99
102.36
102.77
101.61
103.4
107.51
111.75
111.13
113.94
113.46
111.41
109.12
99.59
101.62
103.17
104.69
104.86
104.38
103.8
103.63
103.74
101.88
102.79
102.13
103.905
106.07
106.34
109.09
109.94
108.43
106.49
105.13
107.06
109.31
111.73
115.61
115.16
111.8
109.38
110.13
111.68
110.82
110.6
110.22
108.69
110.42
108.19
107.59
107.35
107.76
111.67
111.44
113.66
115.72
120.92
120.93
118.79
118.98
118.85
118.7
118.7
118.23
118.27
121.12
119.84
119.94
120.72
122.1
120.5
123.99
125.99
122.81
122.48
120.99
125.45
125.7599
127.08
130.2
129.95
128.99
129.31
125.77
120.12
120.84
118.32
118.92
120.26
121.74
120.28
122.13
121.77
123.23
125.9
124.49
129.04
135.07
135.9
136.03
133.55
134.53
136.775
137.15
134.57
134.68
134.11
133.69
134.37
131.33
127.45
125.16
128.11
129.83
135.12
136.74
132.86
138.21
138.87
141.95
142.98
142.67
139.87
142.84
144.22
143.25
142.69
143.16
143.12
144.78
147.94
146.72
147.76
146.8
148.94
147.04
145.49
146.96
144.89
144.95
145.23
143.36
142.96
141.78
144.23
142.85
144.22
145.43
146.03
144.63
143.84
145
143.17
142.88
143.29
144.35
141.32
144.33
148.945
150.85
148.235
149.45
151.34
152.035
151.65
148.03
145
144.61
143.85
137.94
140.56
140.98
140.02
139.24
134.64
138.615
140.51
139.89
139.29
140.05
140.07
137.18
137.92
138.08
138.65
137.22
136.55
136.34
136.6
134.55
135.08
136.97
134.92
134.92
137.78
140.94
139.71
137.7
142.65
146.25
146.09
148.57
145.98
145.26
145.1
144.63
146.5
149.67
147.35
147.8
147.62
148.19
152.21
154.93
155.47
152.77
150.2
152.07
153.61
153.61
147.88
147.91
150.57
151.3
151.11
150.84
153.82
167.6
168.89
168.97
173.54
171.59
174.57
173.06
172.15
172.54
173.33
171.23
173.06
178.57
178.97
180.17
179.58
179.26
179.03
173.91
177.96
179.1
180.01
177.23
176.54
177.6
178.65
179.57
179.19
178.65
180.53
179.51
180.85
180.29
181.01
182.41
179.94
179.21
177.02
177.43
177.43
175.5
176.39
174.67
171.3
168.02
171.73
171.47
169.8
169.6
167.07
168.52
168.67
169.82
170.08
170.76
169.07
172.35
169.08
171.34
171.95
170.06
170.2
171.4
170.31
165.65
158.64
159.98
160.58
162.89
165.05
165.06
163.19
162.65
163.57
163.48
165.71
163.8
163.05
164.22
164.25
167.36
170.14
170.29
169.67
169.49
166.55
164.42
161.07
161.17
162.25
163
163.3
161.05
161.89
161.64
159.63
157.76
158.72
155.66
150.36
150.93
154.71
152.98
152.38
150.28
150.81
149.72
146.59
146.34
145.56
145.37
146.56
148.67
148.1
146.13
145.69
142.93
143.98
143.96
145.96
146.7
150.525
150.76
151.95
152.94
154.77
158.94
160.23
157.42
158.85
160.56
165.09
161.66
160.02
161.76
161.43
163.12
160.48
159.07
161.74
162.75
163.24
163.1
162.57
161.51
160.72
159.56
161.57
162.96
164.78
164.24
162.43
160.93
161.21
160.41
158.77
155.67
157.35
154.18
153.48
159.08
160.5
164.35
166.28
164.82
163.95
163.3
162.81
162.43
165.85
169.27
164.54
160.57
163.88
165.66
167.01
169.74
171.27
171.22
171.02
172.43
170.62
171.25
173.03
170.64
167.57
166.23
168.88
168.46
168.86
164.94
163.92
161.57
159.62
154.85
155.19
154.08
153.47
153.43
154.78
156.11
157.26
157.6
156.67
152.98
152.96
154.1
156.9
153.83
149.82
149.29
151.605
151.885
149.04
149.67
146.76
140.53
137.65
141.105
133.42
126.59
128.84
128.18
123.91
114.5
117.74
121.99
121.22
120.24
121.885
123.12
127.77
128.62
131.04
128.9
130.4
128.77
129.46
129.46
129.5
135.84
132.89
131.01
134.06
133.34
132.4
134.15
134.19
132.47
131.75
128.71
130.6
128.15
126.57
129.75
131.73
133.21
132.76
129.31
125.99
129.52
130.76
127.99
130.98
133.135
137.275
131.6
128.57
127.09
125.06
124.44
123.35
122.365
121.29
